0
-88
-88
-98
-102
-122
-93
-68
-88
-107
-93
-88
-93
-107
-98
-112
-93
-49
-59
-68
-59
-73
-93
-78
-59
-78
-73
-63
-63
-59
-54
-49
-54
-29
-29
-44
-49
-49
-15
-15
-39
-24
-39
-39
-15
5
-34
-39
-39
-29
-44
-44
-10
-39
-34
-15
-5
10
5
-10
5
0
-10
-15
15
15
0
-24
-20
-15
0
15
10
5
-5
20
5
-29
-5
15
10
10
15
-29
-34
20
5
10
0
5
5
15
54
54
5
-5
5
39
49
44
34
-15
-29
-10
-39
-39
-54
-78
-54
-29
0
44
78
146
200
249
351
425
468
493
517
503
464
439
420
376
356
298
176
117
24
-39
-34
-39
-59
-39
-29
-29
-29
-24
24
-10
-15
-5
-10
-24
-24
-20
-15
10
-5
-34
-29
-15
-24
-29
-15
-10
-34
-54
5
20
5
-15
-5
10
5
-10
-10
-15
0
-15
5
15
10
5
0
-5
5
29
20
10
24
15
-5
0
20
15
0
20
34
10
15
15
10
0
-20
-15
39
20
15
15
10
5
34
29
39
49
24
34
73
63
59
59
73
44
54
59
68
83
83
93
93
63
88
112
98
102
93
83
83
117
107
127
137
127
122
117
161
151
122
132
146
166
142
132
137
142
127
122
137
166
142
146
127
98
112
122
107
112
112
78
73
68
63
73
59
59
34
59
63
59
34
24
20
39
5
-10
15
-5
-29
-34
-39
-49
-39
-44
-54
-88
-68
-78
-88
-68
-44
-54
-68
-78
-68
-59
-83
-88
-63
-73
-83
-83
-88
-93
-93
-73
-63
-88
-78
-54
-68
-117
-112
-102
-88
-88
-78
-78
-102
-98
-102
-112
-127
-107
-73
-63
-68
-83
-98
-83
-68
-73
-78
-78
-68
-83
-78
-83
-107
-117
-78
-68
-78
-63
-68
-88
-107
-107
-107
-107
-68
-54
-68
-83
-112
-93
-83
-93
-83
-93
-98
-93
-83
-68
-73
-63
-63
-78
-78
-63
-59
-63
-78
-68
-73
-73
-68
-78
-83
-73
-88
-54
-78
-88
-73
-63
-63
-63
-44
-63
-73
-68
-68
-68
-98
-93
-83
-78
-59
-73
-68
-63
-54
-39
-54
-49
-44
-39
-44
-83
-102
-54
-34
-34
-49
-49
-39
-54
-44
-29
-44
-44
-24
-39
-49
-54
-54
-44
-44
-63
-73
-63
-59
-59
-54
-54
-63
-78
-68
-34
-34
-54
-68
-59
-49
-49
-44
-59
-59
-44
-20
-15
-44
-5
-24
-34
-15
-15
-29
-54
-49
-34
-20
-29
-20
-34
-34
-39
-59
-24
-20
-44
-39
-44
-44
-54
-73
-93
-127
-112
-83
-68
-63
-44
24
44
73
137
210
288
332
400
483
498
493
478
464
410
342
293
259
171
83
0
-34
-44
-39
-5
-10
-15
-34
-20
5
5
5
0
-20
-20
-15
0
-10
-10
-34
-34
0
15
-5
-5
5
-20
-10
-5
15
15
10
20
34
34
24
29
29
20
15
5
-10
44
49
24
24
68
88
63
49
68
63
59
59
63
73
63
78
54
44
54
78
59
29
29
54
68
68
83
98
83
68
63
63
68
93
93
102
93
102
117
132
117
93
83
107
107
107
132
137
142
166
166
146
151
156
146
161
146
146
156
171
156
127
156
161
146
161
146
181
205
190
185
171
171
195
176
176
171
151
156
166
176
195
195
161
142
171
181
137
127
132
122
122
117
117
98
93
107
98
83
63
68
54
49
24
10
24
0
-5
-15
-39
-24
-34
-44
-29
-34
-34
-10
-54
-54
-10
-34
-54
-73
-98
-73
-78
-78
-73
-88
-98
-83
-63
-29
-68
-73
-59
-63
-78
-93
-63
-83
-88
-78
-88
-102
-117
-88
-93
-102
-93
-102
-88
-59
-68
-93
-83
-93
-78
-63
-68
-73
-68
-54
-39
-39
-63
-63
-63
-63
-63
-54
-59
-68
-63
-59
-34
-34
-15
-29
-49
-49
-44
-44
-49
-59
-44
-39
-44
-44
-44
-34
-39
-44
-54
-44
-20
-29
-49
-59
-59
-49
-54
-98
-83
-63
-39
-63
-73
-54
-44
-59
-49
-44
-59
-59
-83
-102
-88
-78
-59
-59
-63
-63
-83
-63
-63
-68
-83
-83
-44
-54
-78
-54
-63
-44
-29
-68
-88
-78
-78
-59
-54
-73
-73
-78
-59
-54
-49
-44
-59
-54
-44
-63
-83
-49
-34
-49
-44
-44
-34
-44
-59
-59
-78
-63
-54
-49
-78
-54
-39
-39
-34
-29
-54
-59
-54
-54
-34
-39
-102
-88
-54
-49
-49
-54
-54
-63
-78
-63
-44
-63
-63
-73
-83
-102
-112
-78
-68
-78
-78
-83
-93
-68
-54
-83
-98
-78
-78
-112
-127
-107
-93
-98
-93
-88
-107
-112
-122
-122
-127
-117
-102
-83
-88
-112
-93
-127
-122
-122
-127
-122
-142
-156
-142
-107
-98
-107
-107
-107
-102
-117
-122
-112
-132
-132
-117
-102
-98
-88
-73
-102
-122
-132
-112
-78
-112
-112
-98
-98
-93
-93
-102
-132
-137
-102
-83
-88
-98
-83
-78
-78
-98
-93
-93
-78
-83
-93
-127
-146
-132
-146
-171
-166
-151
-112
-137
-107
-83
-24
44
102
185
259
307
361
400
420
434
390
376
337
273
229
161
93
15
-54
-78
-98
-102
-88
-127
-122
-107
-117
-98
-93
-68
-59
-73
-83
-112
-112
-98
-63
-63
-83
-63
-59
-68
-78
-63
-73
-112
-83
-68
-68
-68
-73
-44
-34
-88
-78
-63
-49
-44
-73
-83
-78
-59
-34
-44
-63
-59
-54
-54
-59
-54
-49
-54
-59
-39
-34
-24
-39
-39
-63
-88
-59
-24
-20
-15
-10
-20
-15
-20
-39
-20
5
10
-10
-15
-5
-10
15
5
10
10
-10
5
-5
-29
0
10
15
15
-5
10
29
49
44
34
39
44
49
78
88
59
34
39
93
102
98
102
102
73
88
107
122
127
102
88
93
117
127
88
107
107
98
107
102
88
88
88
107
107
73
78
88
73
88
78
59
63
54
44
39
29
34
34
29
29
44
-10
-63
0
34
10
-5
-29
-44
-20
-29
-54
-34
-54
-73
-49
-59
-63
-68
-68
-68
-54
-59
-93
-88
-88
-112
-112
-54
-59
-73
-59
-73
-98
-112
-98
-78
-88
-93
-68
-73
-78
-68
-59
-59
-68
-88
-73
-73
-59
-83
-59
-39
-78
-73
-63
-73
-73
-63
-54
-68
-78
-83
-68
-54
-44
-29
-44
-44
-44
-39
-39
-24
-29
-44
-39
-24
-29
-29
-49
-59
-59
-44
-73
-63
-10
-15
-24
-39
-49
-63
-59
-44
-44
-34
-44
-49
-20
-24
-20
-54
-78
-49
-44
-68
-68
-63
-44
-29
-39
-44
-54
-44
-59
-93
-83
-54
-73
-68
-63
-83
-68
-68
-83
-93
-117
-54
-34
-54
-39
-44
-34
-24
-34
-54
-54
-49
-44
-44
-24
-20
-34
-54
-73
-59
-24
-20
-44
-54
-68
-59
-34
-34
-24
-10
-29
-44
-39
-24
-29
-29
-34
-34
-34
-44
-49
-29
-20
-63
-73
-59
-29
-54
-73
-34
-68
-54
-24
-39
-44
-68
-68
-44
-49
-44
-39
-59
-59
-78
-98
-112
-127
-122
-102
-98
-83
-68
-29
5
78
171
254
317
415
454
468
488
532
512
454
405
356
307
249
156
68
-24
-68
-78
-54
-68
-73
-39
-39
-49
-34
-44
-20
-5
-24
-20
-5
10
0
5
10
20
10
-5
-24
-15
-5
10
34
0
5
5
10
10
-34
-20
-5
-10
10
5
0
0
-20
10
24
-10
-5
5
-5
-24
-10
5
5
15
20
5
0
15
20
20
24
10
15
0
-5
5
15
29
24
15
20
15
15
15
49
34
29
29
49
63
59
59
63
59
73
59
73
83
73
68
78
63
68
73
93
102
88
83
127
151
151
142
137
122
146
166
166
171
190
166
166
181
176
161
151
161
171
166
166
176
171
151
132
156
156
151
171
171
151
127
142
156
142
132
127
132
112
93
54
54
68
54
54
49
24
20
29
34
34
10
-10
-29
-29
-29
-34
0
-10
-29
-24
-20
-44
-68
-39
-15
-15
-10
-10
-29
-29
-20
-24
-20
-24
-34
-15
-15
-44
-68
-54
-63
-63
-49
-39
-59
-44
-24
-49
-24
-44
-49
-34
-49
-63
-34
-34
-29
-29
-54
-39
-34
-54
-49
-5
-10
-20
-15
-20
-39
-29
-39
-54
-39
-39
-34
-24
-24
5
29
73
146
210
254
332
415
488
527
561
581
522
459
356
288
234
137
59
20
-63
-39
-24
-24
-29
-24
-10
-10
5
10
0
-5
34
44
20
-10
-24
10
20
10
-10
10
15
20
10
15
24
20
20
15
34
24
-10
15
34
24
15
15
34
15
24
5
-5
0
15
20
20
10
29
15
-34
5
34
24
24
0
5
39
34
15
24
20
29
54
63
44
20
24
54
49
54
68
39
29
83
83
54
59
54
78
68
68
88
68
68
73
88
63
63
93
88
78
98
107
102
98
93
93
102
107
117
102
88
112
117
117
117
88
122
127
107
112
93
98
88
102
102
88
68
78
98
93
49
39
44
49
39
29
24
20
24
10
-20
-15
5
-10
-34
0
-24
-63
-34
-59
-83
-29
-20
-29
-44
-63
-68
-68
-44
-29
-54
-63
-68
-78
-88
-78
-68
-78
-83
-73
-63
-63
-68
-63
-24
-39
-54
-59
-44
-34
-59
-73
-54
-68
-68
-34
-10
-24
-54
-59
-15
-15
-39
-49
-54
-29
-5
-15
-15
-24
-29
-29
-24
-10
-10
-10
-15
10
34
10
-29
-20
-29
-29
5
5
-20
-10
-15
-29
-5
-15
-34
-68
-78
-59
-68
-49
-29
-63
-59
-59
-63
-73
-63
-44
-49
-59
-63
-49
-29
-39
-44
-49
-39
-24
-24
-63
-54
-39
-49
-49
-54
-68
-73
-63
-34
-29
-34
-34
-15
-20
-44
-63
-59
-59
-49
-59
-59
-59
-54
-44
-34
-49
-54
-63
-73
-78
-73
-83
-98
-88
-39
-63
-98
-98
-83
-73
-78
-54
-39
-54
-44
-44
-49
-63
-73
-68
-73
-83
-98
-98
-88
-73
-68
-68
-83
-73
-88
-93
-88
-88
-83
-83
-88
-98
-98
-83
-102
-102
-98
-107
-112
-93
-98
-83
-83
-122
-107
-68
-88
-73
-63
-44
-54
-78
-63
-54
-44
-83
-107
-78
-78
-63
-54
-68
-73
-73
-78
-78
-68
-68
-68
-78
-78
-78
-68
-39
-39
-49
-54
-59
-59
-49
-63
-63
-78
-112
-68
-20
-20
-49
-68
-29
-24
-29
-29
-34
-44
-34
-34
-34
-39
-29
-34
-39
-39
-44
-68
-63
-49
-44
-39
-29
-29
-49
-63
-54
-44
-34
-15
-44
-49
-68
-98
-63
-63
-83
-122
-142
-107
-98
-93
-83
-59
-24
59
102
156
210
288
356
415
473
483
483
478
473
429
381
332
278
205
127
63
15
20
15
10
24
24
5
20
39
34
29
5
73
88
68
88
93
59
49
49
68
78
54
59
83
88
54
78
83
83
88
88
83
93
93
73
73
83
68
88
107
93
73
73
78
83
59
63
73
78
88
29
34
88
78
59
63
68
54
29
29
34
49
44
54
93
88
34
63
68
68
59
63
93
98
78
98
112
107
127
107
93
102
122
122
107
107
107
122
127
132
151
161
151
151
146
146
171
161
156
166
171
176
185
185
176
171
171
171
161
185
161
166
181
181
166
185
190
142
161
151
156
156
161
181
156
142
122
122
112
117
137
127
112
107
102
93
107
78
98
88
78
112
112
54
59
24
15
44
29
20
34
34
15
15
20
10
-15
5
0
5
20
0
-5
0
-15
0
-10
-20
-20
-15
20
15
-49
-49
-5
15
0
-20
-20
-29
-10
-5
-24
-29
-5
-20
-20
-15
-29
-15
-10
-15
-15
-24
-20
0
5
15
5
15
10
-5
-24
-29
-20
-15
5
-10
-20
-39
-24
-39
-68
-34
-10
-24
-39
0
0
10
0
-34
-20
-15
-34
-34
10
0
-15
10
-10
-5
15
-15
-34
-15
-20
-29
-20
-34
-73
-112
-102
-93
-83
-54
-34
-5
20
68
185
259
312
415
483
542
537
551
537
473
420
351
268
185
107
39
-20
-59
-59
-39
-34
-59
-39
-20
0
24
10
-10
-5
-15
-29
-29
-24
-15
0
10
5
10
15
0
5
15
10
10
-5
-24
0
15
5
10
-10
-15
-15
5
10
10
5
5
-5
-24
-44
-34
-5
-15
-24
-34
-34
-15
-10
0
5
0
5
-10
-10
5
-10
5
-20
10
44
24
44
34
10
10
10
-5
15
34
10
29
34
44
29
29
20
5
39
68
59
63
63
63
63
73
78
73
83
127
107
102
98
93
122
107
88
88
102
117
107
83
107
132
102
117
98
88
117
117
102
107
102
98
98
98
93
78
78
78
68
78
98
73
49
44
39
20
-5
10
15
15
20
15
10
-24
-39
20
5
-29
-29
-20
-5
-24
-24
-5
-20
-54
-39
-10
-29
-34
-39
-39
-29
5
39
63
88
107
166
259
293
337
410
454
483
527
571
512
434
410
337
244
161
54
-29
-49
-68
-68
-54
-54
-10
-10
-10
-5
-20
-29
-10
-20
-44
-49
-39
-49
-49
-34
-24
-10
-34
-44
-20
-24
-24
-34
-39
-34
-39
-54
-39
-34
-20
-10
-34
-59
-59
-63
-34
-29
-39
-44
-49
-49
-34
-44
-39
-24
-29
-24
-39
-44
-29
-15
-5
-10
-20
-34
-44
-29
-24
-49
-29
-24
-39
-39
-63
-44
-10
-24
-5
-10
5
-15
-20
-10
-20
-20
5
-15
-24
-24
-24
-5
-5
-29
-5
0
-5
-10
-15
-24
-10
15
0
-10
10
-5
5
-5
-24
-15
-5
-10
-20
5
0
-5
-5
-20
-15
-20
5
34
-5
-10
10
0
-10
-10
-54
-54
-54
-44
-29
-44
-49
-49
-44
-73
-88
-54
-54
-78
-63
-44
-49
-59
-78
-63
-68
-59
-73
-107
-107
-102
-93
-73
-93
-88
-83
-93
-98
-102
-93
-88
-112
-117
-107
-98
-68
-78
-122
-127
-117
-102
-88
-98
-112
-98
-88
-93
-98
-122
-146
-132
-73
-117
-166
-107
-122
-127
-112
-137
-137
-93
-98
-127
-117
-112
-107
-127
-137
-117
-102
-98
-127
-127
-117
-122
-107
-102
-117
-127
-146
-151
-166
-176
-161
-181
-161
-132
-132
-151
-171
-156
-142
-146
-142
-156
-166
-156
-151
-142
-151
-156
-161
-171
-151
-122
-137
-146
-142
-151
-142
-127
-151
-156
-146
-137
-137
-151
-161
-156
-142
-127
-156
-176
-156
-166
-176
-151
-151
-166
-166
-151
-161
-181
-190
-171
-181
-205
-205
-171
-166
-176
-156
-156
-195
-181
-185
-210
-210
-200
-171
-195
-215
-190
-195
-205
-190
-185
-220
-200
-205
-190
-181
-205
-190
-185
-195
-205
-215
-215
-210
-210
-185
-190
-200
-181
-185
-176
-176
-200
-181
-195
-185
-166
-185
-171
-171
-185
-190
-195
-181
-185
-190
-195
-220
-205
-181
-181
-185
-190
-176
-166
-181
-195
-190
-185
-181
-185
-185
-176
-161
-161
-151
-171
-176
-176
-176
-161
-142
-185
-195
-215
-161
-181
-210
-195
-161
-156
-161
-176
-176
-181
-185
-181
-185
-215
-234
-220
-185
-185
-181
-156
-166
-151
-146
-176
-171
-190
-176
-156
-151
-146
-146
-181
-171
-166
-166
-176
-176
-185
-161
-156
-195
-210
-185
-171
-166
-161
-146
-156
-161
-161
-181
-181
-151
-146
-181
-185
-151
-132
-151
-176
-185
-171
-185
-195
-200
-181
-161
-161
-166
-181
-190
-185
-156
-151
-171
-161
-142
-156
-200
-229
-195
-195
-190
-195
-195
-161
-142
-98
-15
44
93
176
220
283
361
415
429
434
390
327
298
298
249
171
78
-10
-73
-112
-93
-63
-73
-93
-102
-102
-68
-44
-34
-44
-49
-63
-39
-39
-44
-39
-49
-54
-29
-29
-39
-34
5
-15
-34
-29
-10
5
-24
-49
-10
20
-5
15
10
0
-5
20
29
0
24
34
39
44
39
24
39
34
34
68
59
49
59
49
44
63
63
83
117
88
88
88
83
83
88
117
107
112
117
142
98
107
137
176
156
146
171
156
151
156
156
156
161
205
215
190
215
200
205
200
215
229
224
215
220
205
210
234
229
249
249
239
229
215
220
254
234
239
254
224
229
249
264
268
249
268
278
254
239
268
259
239
249
264
278
259
259
264
254
254
259
307
264
264
293
259
264
259
239
254
234
249
288
254
244
259
268
268
259
254
254
244
259
244
259
268
268
239
224
224
239
249
234
239
229
215
249
259
239
254
273
278
264
273
244
244
273
254
249
288
264
288
307
273
288
303
293
298
293
298
283
288
288
273
317
298
268
273
288
293
288
298
312
322
317
288
293
312
327
317
337
317
307
342
361
337
322
307
307
342
317
298
332
327
337
327
342
346
327
337
317
317
342
346
361
342
322
342
317
312
371
386
371
346
361
356
322
312
332
337
351
346
298
342
361
342
322
317
332
346
346
351
312
278
312
337
337
303
264
293
283
268
303
283
278
293
298
298
278
288
312
288
283
264
234
259
244
244
303
268
239
264
244
239
249
259
239
215
210
224
215
205
205
195
176
171
210
234
195
200
176
132
151
171
195
176
156
151
161
146
122
127
132
117
93
102
78
78
63
54
59
63
73
34
20
34
63
39
15
20
39
0
10
15
0
-10
-29
-15
-15
-10
-24
-44
-68
-39
-44
-93
-63
-59
-83
-49
-54
-73
-59
-112
-112
-122
-142
-93
-68
-107
-127
-112
-68
-49
-78
-98
-93
-63
-73
-122
-122
-83
-88
-93
-102
-83
-73
-68
-83
-73
-122
-102
-54
-78
-88
-107
-98
-73
-98
-112
-93
-59
-73
-102
-107
-102
-98
-93
-107
-107
-98
-98
-78
-93
-117
-146
-112
-107
-117
-102
-59
-78
-98
-59
-59
-83
-78
-73
-44
-49
-49
-39
-24
-20
-24
-15
29
0
0
63
59
34
29
29
44
44
44
59
68
44
39
54
102
78
49
63
63
59
63
73
34
15
49
68
59
44
68
73
59
44
-20
20
73
54
39
39
29
10
10
34
49
44
34
-10
-15
-34
-29
-49
-54
-44
-44
-54
-24
5
20
29
68
132
200
239
303
351
415
444
439
429
390
376
346
293
234
195
83
20
-44
-63
-10
-20
-39
-24
-34
10
-34
-34
5
15
-10
-15
5
0
-20
-5
-15
-10
0
-5
-5
-15
-15
-20
-5
5
-20
-39
-24
-59
-102
-34
5
-54
-20
-10
5
15
-24
-29
-15
-24
-10
15
5
-39
-44
-34
-5
10
-10
5
-15
0
10
0
-10
-34
-15
-20
-24
-54
-24
5
-10
-20
5
-20
-29
-34
-29
-44
-20
29
20
-5
-20
39
29
29
-5
-5
24
34
44
24
5
24
54
54
54
39
39
59
24
24
63
63
44
44
63
73
54
54
73
44
24
44
68
117
59
59
78
73
54
34
29
54
59
44
49
59
29
15
39
29
-15
-5
34
-5
-5
-5
-24
-15
5
0
-29
-68
-29
15
0
-10
-20
0
-20
-24
-24
-29
-49
-68
-78
-39
-24
-54
-54
-59
-54
-49
-44
-63
-59
-59
-88
-93
-88
-73
-68
-59
-83
-83
-73
-93
-88
-88
-93
-93
-117
-107
-98
-88
-88
-93
-102
-68
-88
-112
-73
-68
-63
-73
-88
-68
-63
-54
-68
-88
-73
-59
-68
-68
-73
-83
-88
-83
-73
-73
-68
-73
-63
-73
-88
-68
-44
-78
-68
-24
-44
-59
-44
-49
-68
-63
-73
-78
-88
-132
-44
-20
-29
-34
-49
-49
-54
-34
-10
-10
-24
-49
-59
-54
-54
-39
-39
-59
-39
-54
-63
-54
-63
-44
-34
-63
-59
-59
-88
-73
-49
-39
-49
-78
-63
-78
-59
-39
-93
-102
-59
-78
-102
-83
-73
-88
-98
-88
-102
-112
-112
-117
-88
-83
-98
-93
-112
-112
-102
-117
-117
-117
-88
-78
-93
-102
-107
-112
-88
-102
-83
-68
-107
-107
-112
-142
-142
-107
-117
-83
-93
-83
-88
-88
-93
-112
-112
-102
-88
-102
-78
-102
-122
-112
-127
-107
-102
-88
-93
-93
-88
-98
-88
-102
-83
-73
-59
-73
-88
-88
-73
-68
-102
-83
-73
-73
-29
-34
-24
-24
-49
-34
-44
-59
-34
-39
-44
-24
-44
-44
-39
-54
-34
-49
-54
-15
-5
-29
-24
-49
-34
-20
-29
-39
-49
-44
-15
-34
-24
5
29
24
-10
-10
-5
-20
-15
5
-15
-20
15
10
10
-5
-10
-5
-10
5
5
-29
-24
0
0
-5
10
-5
-20
10
0
-5
-5
24
10
-29
-44
-24
-24
-34
-24
-34
-29
-44
-49
-24
-44
-63
-63
-54
-54
-59
-68
-63
-49
-49
-73
-68
-68
-68
-59
-68
-98
-63
-10
-49
-59
-44
-54
-54
-49
-54
-49
-44
-49
-59
-88
-44
-5
-20
-39
-44
-54
-34
-20
-49
-63
-54
-10
-10
-29
-44
-15
-5
-5
-15
-24
-59
-10
-5
-39
-5
-29
-39
-24
-39
-44
-24
-54
-54
-59
-49
-34
-34
-49
-59
-78
-44
-44
-68
-98
-78
-54
-59
-93
-93
-68
-63
-78
-73
-73
-88
-122
-132
-107
-102
-107
-127
-132
-112
-122
-132
-132
-122
-122
-127
-137
-142
-117
-107
-161
-156
-112
-122
-122
-137
-151
-137
-146
-146
-132
-137
-127
-112
-146
-156
-142
-151
-181
-181
-132
-142
-161
-132
-146
-156
-161
-161
-132
-142
-195
-210
-220
-210
-224
-171
-127
-132
-117
-73
-29
24
88
166
239
288
337
381
405
415
346
293
278
234
181
107
10
-24
-93
-127
-137
-122
-122
-102
-137
-142
-117
-127
-107
-107
-112
-98
-102
-102
-107
-112
-107
-102
-117
-142
-166
-117
-93
-112
-122
-137
-142
-122
-73
-93
-112
-102
-112
-112
-102
-102
-102
-117
-127
-122
-88
-78
-112
-112
-107
-83
-68
-93
-112
-73
-88
-88
-68
-88
-102
-54
-54
-68
-73
-78
-102
-98
-88
-107
-102
-78
-54
-49
-39
-88
-107
-44
-24
-15
-15
-39
-44
-29
-15
-5
-10
-10
-5
-10
-24
-5
10
0
10
39
49
24
5
10
5
20
34
44
63
44
49
63
59
73
54
10
54
83
83
93
78
68
59
24
49
68
54
49
39
44
49
49
59
39
54
88
68
73
68
59
54
29
15
20
24
34
15
0
24
10
10
-15
-49
-49
-24
-10
-15
-34
-44
-29
-15
-34
-44
-44
-44
-59
-73
-73
-93
-88
-78
-83
-83
-102
-102
-117
-117
-73
-63
-68
-73
-83
-102
-83
-63
-78
-88
-93
-68
-68
-78
-88
-88
-93
-107
-117
-83
-54
-59
-68
-68
-93
-98
-78
-59
-78
-73
-78
-83
-88
-68
-83
-93
-102
-68
-78
-98
-68
-88
-93
-93
-83
-73
-78
-78
-83
-102
-78
-73
-88
-98
-117
-93
-93
-93
-73
-73
-83
-83
-88
-93
-78
-63
-78
-93
-73
-59
-78
-68
-49
-54
-34
-44
-54
-49
-73
-68
-59
-63
-49
-34
-59
-44
-54
-59
-59
-63
-34
-68
-63
-68
-49
-34
-49
-49
-63
-68
-59
-107
-98
-20
-15
-44
-34
-24
-20
-54
-44
-29
-44
-68
-49
-49
-54
-54
-73
-63
-44
-24
-15
-29
-44
-29
-29
-39
-49
-49
-34
-34
-44
-34
-39
-68
-73
-83
-63
-54
-59
-68
-68
-63
-63
-63
-44
-59
-112
-127
-29
-15
-73
-44
-49
-49
-29
-24
-49
-49
-29
-39
-24
-24
-44
-10
-20
-44
-59
-63
-54
-78
-49
-20
-29
-24
-24
-15
-24
-63
-68
-20
-20
-34
-44
-39
-44
-63
-39
-15
-34
-5
-15
-39
-15
-24
-10
-24
-49
-54
10
20
-5
-24
-24
-29
-49
-39
-15
-10
-24
-49
-44
-49
-34
-24
-29
-44
-24
-24
-29
-49
-78
-112
-127
-122
-107
-117
-83
-24
-34
-5
49
122
190
273
390
434
459
483
473
527
512
434
376
342
283
195
137
49
-20
-54
-29
-29
-63
-68
-44
-15
-44
-34
-10
-15
-15
10
10
5
5
-20
-10
-10
-24
-39
-5
5
-10
-20
-24
-10
10
15
-10
-5
5
-10
-24
-34
-5
20
24
34
15
-5
20
24
20
5
5
24
5
-15
-5
20
39
44
39
34
-15
-29
34
34
10
24
20
24
24
20
34
29
29
29
5
29
49
44
68
78
59
68
59
20
10
68
78
39
49
93
107
102
102
107
107
63
63
127
102
93
142
151
142
132
132
137
132
146
146
151
166
166
142
142
185
190
185
181
171
161
161
151
151
171
185
181
185
181
156
142
151
146
161
166
156
156
146
132
132
151
132
117
98
102
112
117
102
117
107
107
132
83
68
39
59
44
34
34
20
20
24
44
39
54
29
-5
-5
-5
15
0
-34
-10
0
-10
-39
-24
-29
-39
-49
-39
-15
-10
-24
-15
-10
-44
-59
-29
-34
-73
-63
-24
-10
-24
-49
-63
-59
-39
-39
-44
-39
-68
-49
-20
-20
-24
-39
-54
-59
-44
-10
-34
-44
-15
-15
-24
-24
-24
-20
-20
-34
-24
-29
-39
-34
-44
-63
-78
-49
-10
-29
-34
-15
-29
-20
-5
-10
5
0
-10
-39
-54
-15
-10
-15
10
-15
-24
-15
-10
-5
0
-15
15
0
10
0
0
0
-29
0
29
-10
-10
0
-20
-34
-63
-15
5
-34
-29
5
-10
0
0
-5
-15
-15
-20
-10
-34
-29
-34
-44
-24
-20
-24
-49
-29
-20
-39
-24
10
-34
-29
-29
-34
-15
-29
-44
-39
-68
-39
-39
-29
-15
-39
-24
-15
-34
-29
-39
-73
-54
-39
-59
-34
-20
-24
-29
-20
-49
-49
-39
-68
-49
-44
-29
-39
-44
-44
-54
-68
-24
-15
-54
-68
-39
-44
-63
-63
-63
-68
-78
-78
-68
-44
-34
-49
-34
-39
-44
-34
-24
-34
-34
-44
-15
0
-5
-44
-73
-54
-20
-44
-29
-24
-15
-34
-54
-73
-63
-39
-44
-34
-29
-49
-68
-78
-54
-54
-73
-93
-132
-137
-117
-122
-117
-122
-83
-44
-44
29
142
161
210
312
400
420
449
473
454
395
356
322
268
210
146
83
15
-49
-63
-78
-59
-44
-63
-88
-59
-34
-49
-39
-54
-20
-20
-39
-39
-20
-15
-5
-24
-34
-59
-44
-20
-10
-15
-10
-5
-5
0
10
-20
10
15
-24
5
5
-5
20
0
-10
10
15
10
20
-20
-15
-15
10
34
44
24
29
24
29
29
39
44
49
20
34
73
44
34
44
44
5
5
15
24
39
10
10
44
73
44
10
49
88
68
20
39
68
63
83
68
73
88
63
88
88
102
112
117
127
146
142
93
83
122
122
102
127
112
132
142
166
166
166
166
171
122
117
127
166
195
166
151
171
171
161
156
142
127
146
151
132
132
132
102
112
142
117
102
78
73
73
68
83
107
88
44
59
39
54
34
15
20
10
24
49
24
-20
-5
15
24
-5
-20
-20
-29
-10
-10
-15
-15
-20
-39
-24
-24
-24
-39
-59
-59
-78
-39
-54
-59
-34
-34
-34
-39
-39
-39
-44
-49
-44
-49
-44
-44
-78
-98
-63
-24
-29
-24
-29
-29
-54
